Frequency,Real_Endfire,Imag_Endfire,Abs_Endfire,Phase_Endfire,Real_45deg,Imag_45deg,Abs_45deg,Phase_45deg,Real_B,Imag_B,Abs_B,Phase_B
2400000,0,0,0,0,0,0,0,0,0,0,0,0
4800000,-4.91209075505411e-09,4.46509978246412e-09,6.63820394784984e-09,137.729103639818,-1.1638274831667e-09,1.04324154808224e-09,1.56296108019975e-09,138.127316158729,2.5844357887207e-09,-2.37861668629965e-09,3.51242447411521e-09,-42.6252895328831
7200000,-6.44883223234214e-09,1.80553464760288e-08,1.9172453508363e-08,109.655214920365,-1.56867543805966e-09,4.28266658480185e-09,4.56091829641247e-09,110.117011872143,3.31148135622282e-09,-9.49001330642509e-09,1.00511820861397e-08,-70.7638828785721
9600000,-3.85033483032659e-10,3.21969006098995e-08,3.21992027799883e-08,90.6851511039067,-1.45003429263495e-10,7.75220088241322e-09,7.75355689447021e-09,91.0715815966326,9.50266245056677e-11,-1.66924988450731e-08,1.66927693254334e-08,-89.6738315957756
12000000,1.09036935348755e-08,4.36757407078795e-08,4.50162288412125e-08,75.9825765841244,2.62231877627537e-09,1.06818934922571e-08,1.09990637939932e-08,76.2071122184449,-5.65905598232474e-09,-2.23119537233653e-08,2.30184316052306e-08,-104.232006343182
14400000,2.5821950642125e-08,5.15607719498339e-08,5.76652957941526e-08,63.3980104773868,6.42457813628877e-09,1.28115408624233e-08,1.43321590661987e-08,63.3676988812375,-1.29727943695475e-08,-2.59376902249873e-08,2.90009856377669e-08,-116.572029808656
16800000,4.32641308380265e-08,5.53097398788207e-08,7.02207401173805e-08,51.9669346829388,1.10563754670682e-08,1.39400166970349e-08,1.77923439710006e-08,51.5806827336779,-2.11513799038901e-08,-2.74297064847509e-08,3.46376914600016e-08,-127.636253050637
19200000,6.22333273132568e-08,5.45051353034596e-08,8.27272434142912e-08,41.2124940158807,1.63108874755509e-08,1.38660573148171e-08,2.14082366321441e-08,40.3682131898085,-2.96115523621551e-08,-2.67730206738254e-08,3.99204041725248e-08,-137.88197096058
21600000,8.17121334471241e-08,4.88587724719958e-08,9.52053170781489e-08,30.8767981151736,2.19370615793553e-08,1.24004400268014e-08,2.51993171255637e-08,29.478326256724,-3.78380102884134e-08,-2.4057892418393e-08,4.48385683335346e-08,-147.551275793773
24000000,1.00636621513659e-07,3.82484243218884e-08,1.07659981203744e-07,20.8100287137313,2.76269314906062e-08,9.38990191801516e-09,2.91790610132778e-08,18.7719823237784,-4.53827585324464e-08,-1.94686204858581e-08,4.93824053245355e-08,-156.781289236928
26400000,1.1791249747917e-07,2.27492099845439e-08,1.20086983543997e-07,10.920071921986,3.30190947542813e-08,4.74069651968003e-09,3.33576801034472e-08,8.17037185776517,-5.18743079706075e-08,-1.32678169451838e-08,5.35441760971288e-08,-165.653109200318
28800000,1.32450723224009e-07,2.653030830323e-09,1.32477291092284e-07,1.14749954942239,3.77121457939854e-08,-1.5622509048795e-09,3.77444905685136e-08,-2.37215972874699,-5.7026431636038e-08,-5.77753264008201e-09,5.73183547264481e-08,-174.2149183766
31200000,1.43211522722399e-07,-2.15254794311697e-08,1.4482018680146e-07,-8.54788349428538,4.1283677720716e-08,-9.44249033342816e-09,4.23497658770958e-08,-12.8832066465892,-6.06441672809669e-08,2.64049876431341e-09,6.07016248458494e-08,177.506867597447
33600000,1.49250064196522e-07,-4.90558599487272e-08,1.57105248346371e-07,-18.1947809249221,4.33113061856028e-08,-1.87256394100399e-08,4.71860023186737e-08,-23.3812377094191,-6.2627451825316e-08,1.16045811286474e-08,6.36935163521659e-08,169.5024155271
36000000,1.49759263029967e-07,-7.90095245624013e-08,1.6932318752863e-07,-27.8150927293163,4.33930996855564e-08,-2.91380830688952e-08,5.22684320144624e-08,-33.8810116922683,-6.29730636588542e-08,2.07333584246108e-08,6.62984079608665e-08,161.776299604608
38400000,1.44107255589732e-07,-1.10285229513737e-07,1.81465514526871e-07,-37.4268168001459,4.11664011023296e-08,-4.03085094094602e-08,5.76146553450633e-08,-44.3967252430512,-6.17744533850729e-08,2.96682106948167e-08,6.85294521855865e-08,154.346577745312
40800000,1.31869246301344e-07,-1.41639291394873e-07,1.93523091611637e-07,-47.0458024523659,3.63259376789362e-08,-5.17701649565011e-08,6.32433690427486e-08,-54.9435413009327,-5.92173709434715e-08,3.80989614818707e-08,7.04146851690311e-08,147.243793966042
43200000,1.1285513813262e-07,-1.71718698210363e-07,2.05483803541774e-07,-56.6867075511768,2.86436334505073e-08,-6.29630946623263e-08,6.91723140187176e-08,-65.5379138425332,-5.5567871231606e-08,4.57925088857102e-08,7.20051538659573e-08,140.50866301618
45600000,8.71349877059114e-08,-1.99097221832802e-07,2.17329726047886e-07,-66.3633876426867,1.79929210370822e-08,-7.32378603017614e-08,7.54157104920917e-08,-76.197065630255,-5.11491456317471e-08,5.26215012292794e-08,7.33843136540823e-08,134.187110190102
48000000,5.50635389044616e-08,-2.22316665432439e-07,2.29034261728856e-07,-76.0888959373316,4.37920856903218e-09,-8.18644937690439e-08,8.19815394326851e-08,-86.9379735076234,-4.63051217663972e-08,5.85876778943516e-08,7.46771739077823e-08,128.32129193972
50400000,1.73030522513093e-08,-2.39936608678604e-07,2.40559705273766e-07,-85.8752496826029,-1.2024339345986e-08,-8.80518115987911e-08,8.88690399550734e-08,-97.776200895518,-4.13517309432814e-08,6.38329854810223e-08,7.60566610325877e-08,122.935623447172
52800000,-2.51589962910527e-08,-2.50595829145874e-07,2.51855602835595e-07,-95.7330969014828,-3.08397168951497e-08,-9.09820155881527e-08,9.60667231597698e-08,-108.724859057489,-3.65204374992468e-08,6.86317979695682e-08,7.77435916823504e-08,118.018391383667
55200000,-7.10031498902713e-08,-2.5308682732203e-07,2.62858116591958e-07,-105.671388528729,-5.14525950146355e-08,-8.98635465647474e-08,1.03551081766125e-07,-119.793881368001,-3.19020401389997e-08,7.33597341925352e-08,7.9996192195815e-08,113.502837419931
57600000,-1.18589249648809e-07,-2.46441900163586e-07,2.73490439117177e-07,-115.697125475087,-7.29950885680149e-08,-8.40017863155866e-08,1.11286041619162e-07,-130.989683554841,-2.74009274872207e-08,7.84383275324125e-08,8.30865937034486e-08,109.255883572215
60000000,-1.65992613146091e-07,-2.30025670313459e-07,2.83664161681069e-07,-125.815213769418,-9.43514366097212e-08,-7.28831378187411e-08,1.19223090752689e-07,-142.315186673443,-2.27102600733511e-08,8.42593946759763e-08,8.72662678459506e-08,105.084362206804
62400000,-2.11070053847469e-07,-2.03625678813181e-07,2.93281408724287e-07,-136.028429831344,-1.1419341391746e-07,-5.62641232565568e-08,1.27301953433376e-07,-153.770117125734,-1.73167739874514e-08,9.10974323000676e-08,9.27287055501039e-08,100.762982249945
64800000,-2.51557376568872e-07,-1.67530296763979e-07,3.02237512628794e-07,-146.337476042417,-1.31048841704874e-07,-3.42542158618195e-08,1.35451652690166e-07,-165.351473074503,-1.05403068408758e-08,9.90218650403399e-08,9.95812624160143e-08,96.0759269310421
67200000,-2.85195803693488e-07,-1.22582297927275e-07,3.10424010362449e-07,-156.74109501956,-1.4340205386143e-07,-7.37973674941526e-09,1.43591815804966e-07,-177.054051258448,-1.6083040293726e-09,1.07822824428444e-07,1.07834818632842e-07,90.8545704521183
69600000,-3.09880364770693e-07,-7.01971851915575e-08,3.17731781978504e-07,-167.236207861721,-1.49820289485449e-07,2.33834126266928e-08,1.51634109380357e-07,171.12905015867,1.02397857997953e-08,1.16964010444943e-07,1.17411383402933e-07,84.9967133182419
72000000,-3.23819251671832e-07,-1.23377494226477e-08,3.24054205055452e-07,-177.818044469773,-1.49095427060832e-07,5.66181442227749e-08,1.59483731539248e-07,159.206010111632,2.5628397550167e-08,1.25574037868198e-07,1.28162606666348e-07,78.4649225357256
74400000,-3.2569005394895e-07,4.85598793920657e-08,3.29290256654887e-07,171.519759893836,-1.40386877209809e-07,9.05218043189286e-08,1.67040930163468e-07,147.185977430471,4.49162995293309e-08,1.32483729245791e-07,1.39890716197612e-07,71.2716672539361
76800000,-3.14777065935517e-07,1.09708640612799e-07,3.33347546959748e-07,160.785120405653,-1.23349300339223e-07,1.23010080003853e-07,1.74202553588431e-07,135.078892393833,6.80784652570719e-08,1.36311519394907e-07,1.52366360301434e-07,63.460946036654
79200000,-2.91073769631195e-07,1.68136049542877e-07,3.36145311618649e-07,149.987522183924,-9.82284391022408e-08,1.51864550901065e-07,1.80863672606869e-07,122.895439755871,9.4616891426713e-08,1.35593052259253e-07,1.6534156151505e-07,55.0926481362197
81600000,-2.55336264843232e-07,2.20882127549642e-07,3.37617420188813e-07,139.138107779315,-6.59099092344479e-08,1.74913474687513e-07,1.86919340258178e-07,110.647129652021,1.23516446374336e-07,1.28944821825384e-07,1.7855833668727e-07,46.2317734396037
84000000,-2.09076817221619e-07,2.6521430126237e-07,3.37715473577403e-07,128.249829534938,-2.79092687407557e-08,1.90230150464448e-07,1.92266579070234e-07,98.3465000023597,1.53258279740108e-07,1.15245999666527e-07,1.91754376085747e-07,36.9421564936274
86400000,-1.54491672715738e-07,2.98840086971089e-07,3.36412060603354e-07,117.337654775266,1.37030730516329e-08,1.96329071560364e-07,1.96806703521025e-07,86.0074326721652,1.81897818819004e-07,9.38180561496389e-08,2.04667154548081e-07,27.2834797806874
88800000,-9.43235688121991e-08,3.20096186884035e-07,3.33704217071299e-07,106.418799707391,5.64418379688754e-08,1.92337614732823e-07,2.00448095811401e-07,73.6455736457022,2.0720724474995e-07,6.45790425816115e-08,2.17037542875935e-07,17.3103774567997
91200000,-3.16665571572537e-08,3.28092430766202e-07,3.29617071718485e-07,95.5129507980813,9.76037586061913e-08,1.78120733319851e-07,2.03109550076941e-07,61.2788427709172,2.26874074369636e-07,2.81490358735001e-08,2.28613678159656e-07,7.072736431476
93600000,3.02717153530003e-08,3.22791211686611e-07,3.24207561744824e-07,84.6424085089772,1.3450523810641e-07,1.54338490794509e-07,2.04724275108715e-07,48.9280091408387,2.38738760859821e-07,-1.41142300975941e-08,2.39155613415472e-07,-3.38338700593829
96000000,8.84279947183589e-08,3.05008017449183e-07,3.17567946994326e-07,73.8320569736253,1.64737001837781e-07,1.22421651023871e-07,2.05244586807817e-07,36.6172917672708,2.41046008957203e-07,-6.01647154014413e-08,2.48441082378766e-07,-14.0145888232517
98400000,1.40133701037585e-07,2.76326499717214e-07,3.09828643950909e-07,63.1090265196058,1.864058643881e-07,8.4459084364452e-08,2.04647216472534e-07,24.3749199286713,2.32678027738614e-07,-1.0740833098831e-07,2.5627253882932e-07,-24.7788903131526
100800000,1.83326536323605e-07,2.38932036463361e-07,3.01159653620698e-07,52.5018811965408,1.98330657209076e-07,4.30021920473253e-08,2.02939000958069e-07,12.2335521708904,2.13334778094547e-07,-1.5292765236871e-07,2.62485417506677e-07,-35.6346011242265
103200000,2.166936407135e-07,1.95380078891511e-07,2.91769616569863e-07,42.0391465263727,2.00160889755799e-07,8.04925726899029e-10,2.00162508210851e-07,0.23040764070447,1.83628138798098e-07,-1.93770227437713e-07,2.66957289467279e-07,-46.5393788051644
105600000,2.39723180461796e-07,1.48327965617659e-07,2.81901381044847e-07,31.7470204330349,1.92394231046452e-07,-3.94686793425169e-08,1.96400908320196e-07,-11.5930887720122,1.45065281631109e-07,-2.27265324302692e-07,2.69617253834247e-07,-57.4495829609981
108000000,2.52653873961289e-07,1.00268577384466e-07,2.71823044715402e-07,21.6462187269751,1.76282875307463e-07,-7.55272504893445e-08,1.91781171372861e-07,-23.1923973986045,9.99118766536363e-08,-2.51323078363155e-07,2.70454567005965e-07,-68.3200228627091
110400000,2.56329427016283e-07,5.33078615707857e-08,2.61813871404374e-07,11.748128276336,1.53638016892468e-07,-1.05679267722388e-07,1.86474523356383e-07,-34.5219754355362,5.09466067686529e-08,-2.64666397015561e-07,2.69525246406414e-07,-79.1041974398847
112800000,2.51983890877344e-07,9.02306298628114e-09,2.52145388471294e-07,2.05077647357773,1.26562420934318e-07,-1.28964900800182e-07,1.80693087945157e-07,-45.5386817342469,1.14095099129277e-09,-2.66952864586645e-07,2.66955302775914e-07,-89.7551205210253
115200000,2.40999496093862e-07,-3.1576284552822e-08,2.43059290840026e-07,-7.46449907205832,9.71579255324212e-08,-1.45169150035489e-07,1.7468183825398e-07,-56.2066369273387,-4.66836450290195e-08,-2.58762015518155e-07,2.62939429124302e-07,-100.226809724737
117600000,2.24685216799586e-07,-6.79843608656501e-08,2.34745223530934e-07,-16.8345568882938,6.72618916639908e-08,-1.54717012584691e-07,1.68705412045227e-07,-66.5034197528938,-9.01614334716048e-08,-2.41449664303731e-07,2.57734406857212e-07,-110.476491776865
120000000,2.0411896413199e-07,-1.00054903457988e-07,2.27322535671904e-07,-26.1131403686758,3.82606542849012e-08,-1.58476859341648e-07,1.63030035923142e-07,-76.4269626311514,-1.27597655562187e-07,-2.16898815225307e-07,2.51647089693301e-07,-120.467530396797
122400000,1.80079707774505e-07,-1.27817103451287e-07,2.2083005476345e-07,-35.3663976800272,1.10097703132897e-08,-1.5751749204654e-07,1.57901790182959e-07,-86.001782982363,-1.58060167147926e-07,-1.87217880641794e-07,2.45017450951632e-07,-130.172992835636
124800000,1.5307294249535e-07,-1.51298069653326e-07,2.15226465856334e-07,-44.6658960073812,-1.41343914305321e-08,-1.5287165272891e-07,1.53523689472276e-07,-95.2825035142957,-1.81341725356414e-07,-1.54445235804493e-07,2.38197716651413e-07,-139.579606551183
127200000,1.23430854725949e-07,-1.70392295061773e-07,2.10401307302965e-07,-54.0807198666397,-3.71917734621324e-08,-1.45352527306272e-07,1.50035279876365e-07,-104.352502228699,-1.97814401650214e-07,-1.20312759550772e-07,2.31529042694332e-07,-148.691601587967
129600000,9.14535329326676e-08,-1.8480307272297e-07,2.06193899943033e-07,-63.6705638281174,-5.83816827300699e-08,-1.35453098570226e-07,1.47499026405838e-07,-113.316540640564,-2.08216898392807e-07,-8.61031244174834e-08,2.25317608745462e-07,-157.533627941126
132000000,5.7552674409762e-08,-1.94061496822767e-07,2.02415846417243e-07,-73.4812622635681,-7.79352397813759e-08,-1.23336990467318e-07,1.45896932172393e-07,-122.288325799183,-2.13423153972514e-07,-5.26124841118692e-08,2.19812456735275e-07,-166.15171995039
134400000,2.23638838608956e-08,-1.97611202699244e-07,1.98872649536293e-07,-83.54324356213,-9.59364556254622e-08,-1.08909820529484e-07,1.45138390943749e-07,-131.376172198996,-2.1423679511182e-07,-2.02084383597237e-08,2.15187790919287e-07,-174.611372165182
136800000,-1.31952940544384e-08,-1.9493514325201e-07,1.95381232107551e-07,-93.8724833607443,-1.12219658382253e-07,-9.1946268634903e-08,1.45077110680187e-07,-140.670800743988,-2.11244022710067e-07,1.1042605982204e-08,2.11532447339904e-07,177.007634325704
139200000,-4.79309568940128e-08,-1.85695773745349e-07,1.91781899603846e-07,-104.473032660616,-1.26336389576122e-07,-7.22416839273662e-08,1.45532622555189e-07,-150.238211596849,-2.04741822258231e-07,4.12124058906169e-08,2.08848452665836e-07,168.619036693777
141600000,-8.04387691553542e-08,-1.69861292094146e-07,1.87944816728531e-07,-115.34015804384,-1.37590849751654e-07,-4.97574957606443e-08,1.46311483895669e-07,-160.118299164227,-1.94742930347954e-07,7.03463005728571e-08,2.07058955191015e-07,160.138938924604
144000000,-1.09217321359165e-07,-1.47796223149026e-07,1.83771996947271e-07,-126.463376163735,-1.45131877914561e-07,-2.47351286680115e-08,1.47224619467092e-07,-170.327895082799,-1.81046434469958e-07,9.83259658130031e-08,2.06023801992256e-07,151.493701208573
146400000,-1.32810192592826e-07,-1.20302565538923e-07,1.79196134254594e-07,-137.828983383277,-1.48082347823241e-07,2.23863767389357e-09,1.4809926818009e-07,179.133895952921,-1.63354503053655e-07,1.24779840886711e-07,2.05559486182515e-07,142.62526654288
148800000,-1.49955867298298e-07,-8.86061571652643e-08,1.74177533639618e-07,-149.421942202082,-1.45683784235188e-07,3.02228120583079e-08,1.48785696079283e-07,168.279957493147,-1.41411701172079e-07,1.4905178128188e-07,2.05459735061843e-07,133.493292746153
151200000,-1.59725599337346e-07,-5.42905939143357e-08,1.68700135362262e-07,-161.227146956056,-1.37434357898237e-07,5.79692413336804e-08,1.49159765592814e-07,157.130184869081,-1.15143116459128e-07,1.70229076581696e-07,2.05513687577683e-07,124.074459549728
153600000,-1.61632467269697e-07,-1.91872000789646e-08,1.62767328179091e-07,-173.230166460953,-1.2320135197367e-07,8.40178898223222e-08,1.49122697596093e-07,145.707736485561,-8.47702366776417e-08,1.87222979723609e-07,2.05519919139168e-07,114.359918353816
156000000,-1.55699370197863e-07,1.47661055340984e-08,1.56397991523725e-07,174.582427143463,-1.03293803230628e-07,1.06827496655712e-07,1.48599205339644e-07,134.036524925116,-5.08882362633923e-08,1.98888887777325e-07,2.05295889562602e-07,104.351950307307
158400000,-1.42478843325106e-07,4.56817630500296e-08,1.49623007156718e-07,162.223038916041,-7.84865012465508e-08,1.24925626979668e-07,1.47534887922104e-07,122.139742226899,-1.44941591679952e-08,2.04169490909306e-07,2.04683320444418e-07,94.0606618975279
160800000,-1.23022735101534e-07,7.18792641559218e-08,1.42482356688325e-07,149.703269827832,-4.99922101442947e-08,1.37060877790837e-07,1.4589347242391e-07,110.039166268947,2.30383148129449e-08,2.02242491425753e-07,2.03550458824135e-07,83.5012044019904
163200000,-9.88045932094612e-08,9.2026180767171e-08,1.35022833572249e-07,137.034321832409,-1.93843810300062e-08,1.42340419571951e-07,1.43654269939447e-07,97.7550191085807,6.00358311494488e-08,1.92654658376731e-07,2.01792265501084e-07,72.6917081561455
165600000,-7.16017964354522e-08,1.05249907186079e-07,1.27296348005205e-07,124.227560180997,1.15225747847391e-08,1.40337809514356e-07,1.4081005116453e-07,85.3062019853874,9.46469460049304e-08,1.75425711842632e-07,1.99329437774641e-07,61.6519306779822
168000000,-4.3347938537559e-08,1.11209135350267e-07,1.19358768261112e-07,111.295218332494,4.08243494655641e-08,1.3115882510338e-07,1.37365442931566e-07,72.7107823934054,1.24996637468687e-07,1.51108514856493e-07,1.96106967343369e-07,50.4025207940628
170400000,-1.59686930840524e-08,1.10117386262813e-07,1.11269213694383e-07,98.2512393188187,6.66948475922318e-08,1.15456714159011e-07,1.33335874916493e-07,59.9866466550065,1.49358388268516e-07,1.2079604205521e-07,1.92092716994614e-07,38.9647672549905
172800000,8.78364261954399e-09,1.0271480402011e-07,1.03089685917445e-07,85.1122503589701,8.75547509659337e-08,9.439262488171e-08,1.28747046757453e-07,47.1522543148677,1.66325859312323e-07,8.60704457433101e-08,1.87276301507785e-07,27.3606990142854
175200000,2.94805989392087e-08,9.01888979249041e-08,9.48848935432993e-08,71.8986665470143,1.02222669753565e-07,6.95420454427556e-08,1.23634826387668e-07,34.2274401800345,1.74964740567922e-07,4.88951929606071e-08,1.81668380123387e-07,15.6134143111041
177600000,4.51366356485494e-08,7.40500244214308e-08,8.67220963450746e-08,58.6359177587953,1.10031051397384e-07,4.27538302449483e-08,1.18045424613695e-07,21.234209831695,1.74925467146218e-07,1.14576360684657e-08,1.75300303709377e-07,3.74752627019298
180000000,5.52821265911822e-08,5.59730083032456e-08,7.86707771600021e-08,45.3557956894643,1.10890902125679e-07,1.59746255146891e-08,1.12035623060621e-07,8.19747032844223,1.66499677660176e-07,-2.40237572738674e-08,1.68223909045344e-07,-8.21037868047935
182400000,5.99792501675351e-08,3.76218960139248e-08,7.08019597916776e-08,32.0979319853159,1.05293731409384e-07,-8.94237988596904e-09,1.05672778103618e-07,-4.85436387494091,1.50608212651233e-07,-5.55066557858629e-08,1.60511129067518e-07,-20.2313639957097
184800000,5.97762455563606e-08,2.04793305608364e-08,6.31870438700397e-08,18.9114503270178,9.42463647264123e-08,-3.04206618361848e-08,9.90343068370524e-08,-17.8889426576866,1.28716483896464e-07,-8.13206542332059e-08,1.52253019778214e-07,-32.283927281521
187200000,5.56043452518993e-08,5.70386612691695e-09,5.58961295590867e-08,5.85688680542086,7.91440608096029e-08,-4.73100330640257e-08,9.22064075319787e-08,-30.8697627172333,1.02683776367307e-07,-1.00323932254968e-07,1.43557825673665e-07,-44.3340005695781
189600000,4.86316248013565e-08,-5.96386104559269e-09,4.89959444177888e-08,-6.99146707103842,6.15982184193354e-08,-5.89801653908022e-08,8.52818880065547e-08,-43.7561632613615,7.45648120373143e-08,-1.11996469736012e-07,1.34547836948386e-07,-56.3451876987614
